188.637,11.1
188.962,11.1
189.286,11.1
189.611,13
189.936,14.7
190.26,14.1
190.585,12.1
190.91,11.2
191.235,10.9
191.56,9.5
191.884,9.4
192.209,8.1
192.534,10
192.859,10
193.184,10.1
193.51,9.8
193.835,10.8
194.16,8.7
194.485,10
194.81,11.3
195.136,12.5
195.461,13.8
195.786,14.7
196.112,14.7
196.437,14.8
196.763,16.7
197.088,16.9
197.414,19.4
197.739,19.7
198.065,19.9
198.391,18.6
198.716,17.8
199.042,18.1
199.368,18.1
199.694,17.9
200.02,18
200.346,18.3
200.672,15.9
200.997,15.8
201.324,14.8
201.65,14.1
201.976,15.4
202.302,15.9
202.628,15
202.954,16.8
203.28,18.6
203.607,18.1
203.933,18.8
204.259,20.7
204.586,19.5
204.912,19
205.239,13.8
205.565,15.6
205.892,16.7
206.218,17.7
206.545,17.6
206.872,21.8
207.198,19
207.525,18.6
207.852,18.9
208.179,18.4
208.505,18.3
208.832,20.2
209.159,17.6
209.486,14.5
209.813,15.5
210.14,15.3
210.467,14.5
210.794,15.3
211.122,17.8
211.449,18
211.776,17.1
212.103,15.6
212.431,13.5
212.758,12.1
213.085,13.4
213.413,14.7
213.74,13.8
214.068,15.2
214.395,15.4
214.723,10.3
215.05,9
215.378,8.1
215.706,7
216.033,8.6
216.361,10.8
216.689,11.7
217.017,12.7
217.345,12.6
217.672,10.9
218,9.5
218.328,8.6
218.656,10.4
218.984,11.2
219.313,11.1
219.641,12.8
219.969,12.5
220.297,11.5
220.625,12.5
220.954,11.5
221.282,11.6
221.61,13
221.939,12.2
222.267,10.4
222.595,13.7
222.924,11.4
223.252,11.6
223.581,12.8
223.91,11.9
224.238,11.3
224.567,12
224.896,10.9
225.224,9.5
225.553,12
225.882,10.1
226.211,12.2
226.54,10.3
226.869,9.9
227.198,9
227.527,8.4
227.856,6.7
228.185,7.5
228.514,7.5
228.843,6.1
229.172,6.8
229.502,6.2
229.831,6.4
230.16,7.2
230.49,8.1
230.819,7.6
231.148,7.1
231.478,6.5
231.807,5.9
232.137,4.8
232.466,4.9
232.796,6
233.126,7.5
233.455,7.6
233.785,7.2
234.115,6.9
234.445,4.8
234.774,1.8
235.104,2.5
235.434,1.9
235.764,3.3
236.094,4.3
236.424,6.5
236.754,6.2
237.084,7.6
237.414,7.1
237.744,7.8
238.075,8.1
238.405,7.1
238.735,8.2
239.065,7.9
239.396,7.7
239.726,5.6
240.057,7.7
240.387,5.2
240.717,4.4
241.048,3.4
241.379,5.1
241.709,4.1
242.04,5
242.37,3.1
242.701,0.6
243.032,1
243.363,2.3
243.693,1.2
244.024,1.8
244.355,4.6
244.686,3.2
245.017,0
245.348,2.1
245.679,3
246.01,4.2
246.341,5.9
246.672,9.8
247.003,9
247.335,8.4
247.666,7.1
247.997,5.8
248.329,3.2
248.66,0.6
248.991,2.7
249.323,2.8
249.654,1.9
249.986,2.7
250.317,4.4
250.649,2.2
250.98,2.6
251.312,3.1
251.644,1.5
251.975,-0.1
252.307,0.2
252.639,1.6
252.971,0.2
253.303,0
253.635,2.2
253.966,2
254.298,0.3
254.63,2.1
254.962,2.3
255.295,4.3
255.627,5.3
255.959,4.2
256.291,4.7
256.623,4.8
256.955,2.5
257.288,3.1
257.62,3.7
257.952,0.6
258.285,2.6
258.617,4.5
258.95,3.9
259.282,5.9
259.615,9.6
259.947,10.2
260.28,6.8
260.613,7.3
260.945,6.5
261.278,6
261.611,2.1
261.944,4.5
262.276,6.6
262.609,5.8
262.942,3.9
263.275,5.2
263.608,5.6
263.941,5.1
264.274,4.9
264.607,5.9
264.94,6.1
265.273,4.3
265.607,2
265.94,1.1
266.273,0.5
266.606,1
266.94,-0.4
267.273,-1.9
267.606,-2.1
267.94,-0.1
268.273,-0.5
268.607,3.9
268.94,5.6
269.274,7
269.607,6.7
269.941,7.8
270.275,3.4
270.609,5.6
270.942,4.9
271.276,5.1
271.61,4.8
271.944,6.2
272.278,4.1
272.612,5.3
272.945,3.4
273.279,3.7
273.614,3.4
273.948,3.6
274.282,1.4
274.616,1.7
274.95,1.1
275.284,3.7
275.618,3.6
275.953,6.5
276.287,8.5
276.621,8.8
276.956,8.7
277.29,8.9
277.625,8.4
277.959,9.6
278.294,10
278.628,7.9
278.963,8
279.297,8.6
279.632,6.7
279.967,6.4
280.301,6.4
280.636,6
280.971,4.5
281.306,4.7
281.641,2.7
281.976,1.7
282.311,3.2
282.646,3.6
282.981,2
283.316,2.7
283.651,4.2
283.986,3.5
284.321,4.4
284.656,5.7
284.991,6
285.327,8.4
285.662,7.5
285.997,7.3
286.333,8.7
286.668,7.8
287.003,6.5
287.339,7.1
287.674,7.3
288.01,6.6
288.346,7.5
288.681,6.7
289.017,6.9
289.352,7.3
289.688,7.7
290.024,7.8
290.36,7
290.695,7.4
291.031,6.7
291.367,7.5
291.703,5.4
292.039,7.1
292.375,7.8
292.711,7.6
293.047,4.6
293.383,8.3
293.719,9.3
294.055,8.1
294.392,8.3
294.728,8.6
295.064,8
295.4,7
295.737,8.1
296.073,6.9
296.41,7.9
296.746,7.4
297.082,6.4
297.419,6
297.755,6
298.092,7.1
298.429,8.8
298.765,8.2
299.102,8.4
299.439,11.3
299.775,8.5
300.112,5.7
300.449,4.9
300.786,4.4
301.123,1
301.46,1.1
301.797,3.1
302.134,4.6
302.471,4.8
302.808,6.6
303.145,8.2
303.482,8.2
303.819,8.4
304.156,6.6
304.493,6.5
304.831,5.7
305.168,7.6
305.505,7.6
305.843,9
306.18,7.4
306.517,10.7
306.855,9.6
307.192,10
307.53,10.9
307.867,12.9
308.205,10.1
308.543,8.9
308.88,8
309.218,7.4
309.556,7.2
309.894,7.8
310.231,7.5
310.569,6.9
310.907,6.3
311.245,4.7
311.583,6.2
311.921,5.4
312.259,4.4
312.597,6.3
312.935,7.5
313.273,6.6
313.611,10.4
313.949,13.1
314.288,11.2
314.626,10.3
314.964,9.6
315.302,8.8
315.641,8.4
315.979,9.8
316.317,9.9
316.656,10
316.994,8.2
317.333,9.2
317.671,9.1
318.01,11.4
318.349,12.4
318.687,14.2
319.026,14.1
319.365,11.8
319.703,9.8
320.042,8.3
320.381,6.3
320.72,5
321.059,8.6
321.398,10.2
321.737,9.2
322.076,9.2
322.415,8.9
322.754,6.9
323.093,4.8
323.432,7
323.771,6.2
324.11,7.6
324.449,8.1
324.789,9.6
325.128,10
325.467,12.5
325.806,9.4
326.146,10.3
326.485,10
326.825,10.9
327.164,9.3
327.504,11.1
327.843,8.7
328.183,10.8
328.522,8.8
328.862,10.8
329.202,11.1
329.541,15.8
329.881,13.7
330.221,12.8
330.561,14
330.901,15.8
331.24,12.8
331.58,12.7
331.92,12.9
332.26,8.1
332.6,9.5
332.94,8.9
333.28,9.6
333.621,9.8
333.961,12.8
334.301,10.7
334.641,10
334.981,12.4
335.322,13.3
335.662,12.5
336.002,12.3
336.343,13.4
336.683,9.3
337.023,10.7
337.364,10.1
337.704,8.7
338.045,9.4
338.386,12.1
338.726,12.5
339.067,14.8
339.407,14.7
339.748,14.1
340.089,12.6
340.43,11.4
340.77,11.5
341.111,12.4
341.452,10.8
341.793,11.3
342.134,12.5
342.475,10.7
342.816,13.1
343.157,15.7
343.498,16
343.839,14.7
344.18,15.6
344.521,13.2
344.863,12.3
345.204,15
345.545,15.6
345.886,16.1
346.228,15.8
346.569,14.7
346.91,12.8
347.252,11.7
347.593,12.6
347.935,13.6
348.276,17.1
348.618,16.6
348.959,17.4
349.301,15
349.643,15.7
349.984,12.9
350.326,13.1
350.668,14.9
351.01,17.4
351.351,17.4
351.693,18.9
352.035,18.2
352.377,16.9
352.719,16.8
353.061,17.6
353.403,16.4
353.745,18
354.087,18
354.429,17.1
354.771,15.9
355.113,15.1
355.456,13.8
355.798,11.3
356.14,11
356.482,10.3
356.825,13.7
357.167,13.5
357.509,14.6
357.852,15.9
358.194,16.7
358.537,14.8
358.879,16.5
359.222,16.3
359.564,16.1
359.907,16.1
360.25,19.2
360.592,18.5
360.935,20.6
361.278,20.6
361.621,22.3
361.963,19.1
362.306,19.1
362.649,19.6
362.992,18.9
363.335,15.7
363.678,17.8
364.021,18.6
364.364,17.2
364.707,17.5
365.05,21
365.393,19.8
365.736,18.9
366.08,21.6
366.423,24.7
366.766,23.2
367.109,23.5
367.453,24.5
367.796,24.4
368.139,21.8
368.483,22.8
368.826,23.6
369.17,27.1
369.513,26.1
369.857,25.4
370.2,26.4
370.544,25.8
370.888,22.2
371.231,23
371.575,24.5
371.919,23.7
372.263,23.3
372.606,24.9
372.95,23.5
373.294,22.9
373.638,24
373.982,26.4
374.326,25.6
374.67,27
375.014,28.1
375.358,25.5
375.702,25.7
376.046,23.6
376.39,22.4
376.734,22.7
377.079,23.1
377.423,21.8
377.767,23.1
378.111,24.3
378.456,25.2
378.8,27.9
379.144,26.4
379.489,27.8
379.833,27.3
380.178,27
380.522,24.7
380.867,26.3
381.211,26.6
381.556,26.1
381.901,25.5
382.245,28.4
382.59,29.2
382.935,29.3
383.28,32.2
383.624,33.4
383.969,32.5
384.314,33.8
384.659,34
385.004,33.6
385.349,34.7
385.694,33.3
386.039,32.1
386.384,31.2
386.729,32.4
387.074,32
387.419,34.4
387.764,35.9
388.11,37.2
388.455,35.4
388.8,36.6
389.145,38.2
389.491,39
389.836,40
390.182,40.9
390.527,40.9
390.872,41.5
391.218,41.7
391.563,41.5
391.909,42.2
392.255,44.1
392.6,42.5
392.946,42.7
393.291,45.9
393.637,48.7
393.983,46.8
394.329,50.7
394.674,52.9
395.02,55.2
395.366,55.8
395.712,60.3
396.058,59.8
396.404,59.8
396.75,60.9
397.096,63.9
397.442,63.7
397.788,68
398.134,72.6
398.48,77.2
398.826,78.8
399.173,84.3
399.519,87.2
399.865,91.4
400.211,92
400.558,98.2
400.904,103.7
401.25,110.4
401.597,116.2
401.943,123.7
402.29,130.5
402.636,134.6
402.983,139.9
403.329,147.1
403.676,157.7
404.023,165.2
404.369,178.8
404.716,189.8
405.063,202.1
405.409,211
405.756,224
406.103,237.9
406.45,251.6
406.797,267.6
407.144,286.6
407.49,306
407.837,324.9
408.184,350.6
408.531,374.6
408.878,407.6
409.226,437.4
409.573,471.8
409.92,505.3
410.267,540.1
410.614,573.6
410.961,614.8
411.309,656.2
411.656,703.6
412.003,753.2
412.351,804
412.698,865.9
413.045,931.7
413.393,998.6
413.74,1074.1
414.088,1158.1
414.435,1240.3
414.783,1332.8
415.131,1429.9
415.478,1530.5
415.826,1636.9
416.173,1748
416.521,1867.2
416.869,1998.2
417.217,2146.9
417.565,2299.2
417.912,2468.8
418.26,2633.7
418.608,2812.5
418.956,3014.3
419.304,3223.7
419.652,3444.5
420,3678.3
420.348,3945.7
420.696,4202.6
421.044,4487.8
421.392,4775.9
421.741,5093.7
422.089,5413.8
422.437,5772.4
422.785,6142.3
423.133,6548.8
423.482,6982.1
423.83,7430.8
424.179,7886.9
424.527,8351.6
424.875,8839
425.224,9341.7
425.572,9863.6
425.921,10413.7
426.269,10968.5
426.618,11561.9
426.967,12180.1
427.315,12826.3
427.664,13490.4
428.013,14199.5
428.361,14933
428.71,15661.7
429.059,16437.5
429.408,17242.6
429.757,18092.6
430.105,18985.4
430.454,19898
430.803,20837.7
431.152,21799.9
431.501,22827.1
431.85,23823.5
432.199,24887.5
432.548,25994.8
432.897,27195.3
433.247,28349.6
433.596,29637.5
433.945,30982.8
434.294,32390.2
434.644,33888.9
434.993,35496.4
435.342,37155
435.691,38865
436.041,40625
436.39,42379.8
436.74,44082
437.089,45666.8
437.439,47314.4
437.788,49144.5
438.138,50892
438.487,52732.1
438.837,54750.6
439.187,56765.5
439.536,58604.1
439.886,60585.9
440.236,62221
440.585,63431.4
440.935,64248.4
441.285,64692.1
441.635,64702.1
441.985,64698.1
442.335,64687.8
442.685,64689
443.035,64682.1
443.385,64678.7
443.735,64683.3
444.085,64684.7
444.435,64679.9
444.785,64682
445.135,64673.5
445.485,64674
445.835,64673
446.186,64668.6
446.536,64661.9
446.886,64666
447.236,64661.8
447.587,64670.5
447.937,64676
448.288,64682.2
448.638,64682.1
448.988,64604.5
449.339,64091.3
449.689,63213.2
450.04,61881.6
450.391,60188.1
450.741,58237.3
451.092,56516.1
451.442,54766.9
451.793,52946.9
452.144,51118.8
452.495,49334.2
452.845,47537.6
453.196,45909.8
453.547,44517.5
453.898,43195.5
454.249,41870.5
454.6,40567
454.951,39216.5
455.302,37928.1
455.653,36685.2
456.004,35575.2
456.355,34468.4
456.706,33500
457.057,32518.2
457.408,31638.7
457.759,30721.2
458.11,29827.4
458.462,28913.7
458.813,27998.6
459.164,27106.3
459.516,26250.6
459.867,25422.9
460.218,24547.2
460.57,23764.2
460.921,22918
461.273,22124
461.624,21285.2
461.976,20497.1
462.327,19700.4
462.679,18948.5
463.03,18188.5
463.382,17453.8
463.734,16710.9
464.085,16011.2
464.437,15308.3
464.789,14616.2
465.141,13966.4
465.492,13351
465.844,12743.9
466.196,12187.8
466.548,11629.2
466.9,11090.9
467.252,10612.5
467.604,10162.1
467.956,9729.7
468.308,9339.5
468.66,8967
469.012,8606.9
469.364,8248.2
469.716,7912.9
470.068,7607
470.421,7310.5
470.773,7027.1
471.125,6762.3
471.477,6518
471.83,6260.7
472.182,6034.7
472.534,5822
472.887,5632.8
473.239,5452.1
473.592,5304.9
473.944,5150.8
474.297,4999.8
474.649,4843.1
475.002,4679.5
475.354,4506.3
475.707,4340.5
476.06,4185.2
476.412,4043.7
476.765,3918.1
477.118,3800.9
477.471,3677.7
477.823,3543.1
478.176,3412.5
478.529,3279.7
478.882,3139.4
479.235,3016.7
479.588,2902.6
479.941,2792.7
480.294,2682.5
480.647,2577.8
481,2472.4
481.353,2372.9
481.706,2273.4
482.059,2182.8
482.412,2097.2
482.765,2008.7
483.119,1926.6
483.472,1846.6
483.825,1767.7
484.178,1695.6
484.532,1628.1
484.885,1560.4
485.238,1496.4
485.592,1440.3
485.945,1385.1
486.299,1337.9
486.652,1286.7
487.006,1236.7
487.359,1187
487.713,1144.8
488.066,1103.6
488.42,1068.8
488.774,1033.2
489.127,997.2
489.481,958.3
489.835,923.9
490.189,892.3
490.542,865.7
490.896,844
491.25,824.1
491.604,797.2
491.958,773.7
492.312,746.9
492.666,727.8
493.02,705.4
493.374,688
493.728,667.5
494.082,649.6
494.436,620.8
494.79,598.6
495.144,580.5
495.498,564
495.852,547.4
496.207,531.6
496.561,517.6
496.915,501.1
497.269,484.3
497.624,468.2
497.978,455.5
498.333,443.1
498.687,428.2
499.041,413.8
499.396,400.6
499.75,389
500.105,378
500.459,369
500.814,357.9
501.169,352.4
501.523,342.9
501.878,331.4
502.233,321.1
502.587,313.5
502.942,303.3
503.297,295.6
503.652,286.2
504.006,277.9
504.361,271.2
504.716,263.9
505.071,256.5
505.426,250.1
505.781,243
506.136,235
506.491,228.8
506.846,223.5
507.201,221
507.556,218.7
507.911,215.3
508.266,212.8
508.622,211.4
508.977,206.4
509.332,203.3
509.687,200.1
510.043,193.5
510.398,187
510.753,181.4
511.109,175.4
511.464,174
511.819,172.4
512.175,169
512.53,168.1
512.886,167
513.241,161.5
513.597,159.1
513.952,158.2
514.308,153.4
514.664,148.9
515.019,147.2
515.375,144.5
515.731,140.6
516.086,142.2
516.442,141.7
516.798,137.2
517.154,134.9
517.51,134.2
517.866,130.6
518.221,126.6
518.577,124.3
518.933,123.7
519.289,122.6
519.645,119.4
520.001,120.2
520.357,119.7
520.713,114
521.07,110.9
521.426,111.8
521.782,108.8
522.138,108
522.494,109.3
522.85,108.9
523.207,104.4
523.563,102.5
523.919,99.2
524.276,98.6
524.632,94.3
524.988,94.4
525.345,93.4
525.701,92.1
526.058,90.3
526.414,92.2
526.771,87.5
527.127,88.9
527.484,89.5
527.841,86.7
528.197,82.7
528.554,88.7
528.911,85
529.267,84.6
529.624,84.1
529.981,83
530.338,79.1
530.694,77.6
531.051,76.1
531.408,75.9
531.765,76.9
532.122,75.4
532.479,76.2
532.836,74.9
533.193,74.6
533.55,72.7
533.907,72.3
534.264,70.8
534.621,72.3
534.978,72.2
535.335,71.9
535.692,73.6
536.05,72.1
536.407,69.9
536.764,70.8
537.121,71.5
537.479,67.2
537.836,66.1
538.193,66.3
538.551,63.4
538.908,59.5
539.266,60.3
539.623,60.5
539.981,58.2
540.338,58.7
540.696,61.9
541.053,61.2
541.411,63.2
541.768,64.8
542.126,63
542.484,61.2
542.841,61.3
543.199,59.5
543.557,57.8
543.915,56.6
544.273,55.8
544.63,56.4
544.988,54.9
545.346,54.6
545.704,55.6
546.062,55.4
546.42,54.1
546.778,56.2
547.136,57.3
547.494,56.4
547.852,55.1
548.21,54.2
548.568,53.3
548.926,53.3
549.284,53.7
549.643,54.7
550.001,52.7
550.359,54.4
550.717,54.1
551.076,52.8
551.434,53.1
551.792,54.7
552.151,52.1
552.509,51.5
552.867,52.8
553.226,52.1
553.584,53
553.943,53.3
554.301,52.7
554.66,50.8
555.018,51.5
555.377,52.4
555.736,55.1
556.094,55.7
556.453,57.6
556.811,55.6
557.17,55.4
557.529,51.9
557.888,51.1
558.246,51.9
558.605,52.7
558.964,50.8
559.323,49.7
559.682,50.4
560.041,50.3
560.4,50.8
560.759,51.3
561.118,53.8
561.477,52.1
561.836,50.2
562.195,51.1
562.554,51.6
562.913,51.9
563.272,52.3
563.631,54.9
563.991,55.7
564.35,56.4
564.709,54.3
565.068,54.1
565.428,52.8
565.787,53
566.146,51.2
566.506,52.6
566.865,53.5
567.224,54
567.584,53.7
567.943,54.6
568.303,53.7
568.662,56.9
569.022,57.3
569.381,57.6
569.741,57.9
570.101,57.8
570.46,55.2
570.82,55.4
571.179,54.3
571.539,56.2
571.899,55.9
572.259,55.2
572.618,54.7
572.978,52.2
573.338,50.8
573.698,53.2
574.058,54.1
574.418,53.9
574.778,55.4
575.138,53.4
575.498,51.5
575.858,52
576.218,49.2
576.578,48
576.938,45.4
577.298,45.6
577.658,44.8
578.018,47.9
578.378,50.8
578.739,54.6
579.099,55.1
579.459,52.3
579.819,53.2
580.18,51.1
580.54,52.6
580.9,52.6
581.261,53.3
581.621,53.2
581.981,54.6
582.342,50.6
582.702,48.3
583.063,50.1
583.423,46.3
583.784,44.6
584.145,45.9
584.505,47
584.866,48
585.226,49
585.587,48.9
585.948,49
586.308,49.8
586.669,46.8
587.03,48.3
587.391,48.5
587.751,50
588.112,48.9
588.473,47.9
588.834,47.7
589.195,47.3
589.556,44.9
589.917,45.8
590.278,47
590.639,45.5
591,47.3
591.361,48.2
591.722,46.5
592.083,47.4
592.444,47.7
592.805,46.4
593.167,44.7
593.528,44.2
593.889,41
594.25,40.6
594.611,39
594.973,40.7
595.334,39.4
595.695,40
596.057,38.5
596.418,40.3
596.78,38.1
597.141,39.5
597.502,40.4
597.864,42.3
598.225,41
598.587,41.8
598.948,38.8
599.31,38.4
599.672,34.7
600.033,32.5
600.395,31.4
600.757,34.2
601.118,31.7
601.48,33.7
601.842,34.7
602.203,34.2
602.565,31.9
602.927,35.5
603.289,35.2
603.651,37.1
604.013,40.1
604.375,41.6
604.736,40
605.098,42.5
605.46,38.1
605.822,33.6
606.184,32.9
606.546,32.9
606.909,31.9
607.271,34.5
607.633,36.2
607.995,36.1
608.357,34.7
608.719,33.3
609.081,33.8
609.444,33
609.806,33.8
610.168,33.4
610.531,32.2
610.893,33.8
611.255,34.9
611.618,36.4
611.98,38.8
612.342,41.1
612.705,38.2
613.067,38
613.43,35.8
613.792,33.2
614.155,34.1
614.517,33.7
614.88,34.1
615.243,33.3
615.605,38
615.968,37.7
616.331,40.4
616.693,41.7
617.056,45
617.419,42.9
617.782,42.1
618.144,39
618.507,40.9
618.87,40
619.233,39.7
619.596,42.4
619.959,46
620.322,44.9
620.685,48.4
621.047,50
621.41,50.1
621.774,48.1
622.137,48.1
622.5,46.4
622.863,48.4
623.226,49
623.589,52.6
623.952,52.8
624.315,54.6
624.679,56.7
625.042,58
625.405,59.6
625.768,62.8
626.132,62.1
626.495,66.1
626.858,67.4
627.222,66.9
627.585,67.3
627.948,73.2
628.312,72.6
628.675,73.6
629.039,77.7
629.402,79.7
629.766,80.4
630.129,77.9
630.493,82.4
630.857,83.9
631.22,88.5
631.584,90.5
631.947,94.7
632.311,95.9
632.675,100.4
633.039,100.8
633.402,103.7
633.766,109.8
634.13,112.8
634.494,115.7
634.858,123.1
635.221,128
635.585,131.7
635.949,136.2
636.313,142.7
636.677,147.6
637.041,156
637.405,162.9
637.769,173.1
638.133,182.3
638.497,188.9
638.861,194.5
639.225,204.2
639.59,214.2
639.954,222.5
640.318,235.1
640.682,247.6
641.046,260.5
641.411,271.1
641.775,284.3
642.139,300.6
642.503,316.5
642.868,327.6
643.232,346.4
643.596,361.4
643.961,377.6
644.325,396.9
644.69,422.5
645.054,442.8
645.419,470.6
645.783,492.8
646.148,517.9
646.512,541.7
646.877,566.6
647.242,590.7
647.606,620.4
647.971,647.5
648.335,676
648.7,709.4
649.065,745.3
649.43,778.8
649.794,819.6
650.159,858.4
650.524,897.2
650.889,936.1
651.254,978.7
651.618,1010.9
651.983,1052.5
652.348,1091.3
652.713,1127.1
653.078,1161.1
653.443,1208.5
653.808,1252.7
654.173,1298
654.538,1346.7
654.903,1400.3
655.268,1448.6
655.633,1498.6
655.999,1554.4
656.364,1612.9
656.729,1675.9
657.094,1739.8
657.459,1810.6
657.825,1883
658.19,1959.8
658.555,2039.2
658.92,2126.6
659.286,2216.6
659.651,2321
660.016,2427.4
660.382,2537.5
660.747,2654.1
661.113,2770.1
661.478,2895.1
661.844,3035.2
662.209,3194.4
662.575,3367.5
662.94,3543.5
663.306,3716.5
663.671,3890
664.037,4069.7
664.402,4269.7
664.768,4492.4
665.134,4720.3
665.5,4960.9
665.865,5215
666.231,5461
666.597,5717.3
666.962,6000.6
667.328,6321.4
667.694,6637.1
668.06,6972.4
668.426,7313.1
668.792,7658.9
669.158,7998.9
669.524,8373.5
669.889,8765.7
670.255,9172.3
670.621,9593.8
670.987,10030.7
671.353,10456.8
671.72,10908.6
672.086,11373.4
672.452,11862.8
672.818,12350.4
673.184,12897
673.55,13412.1
673.916,13962.5
674.283,14524
674.649,15101.7
675.015,15686.2
675.381,16316.2
675.748,16933.5
676.114,17550.5
676.48,18197.4
676.847,18852.7
677.213,19532.9
677.579,20240.5
677.946,20953.2
678.312,21683.3
678.679,22397.1
679.045,23096.2
679.412,23751.2
679.778,24432.1
680.145,24991
680.511,25548.4
680.878,26069.7
681.244,26561.6
681.611,26981.5
681.978,27375.9
682.344,27696.1
682.711,27936.5
683.078,28070
683.445,28074.1
683.811,28034.1
684.178,27935
684.545,27706.6
684.912,27434.2
685.278,27084.2
685.645,26648.8
686.012,26115.9
686.379,25559.4
686.746,24950.7
687.113,24323.9
687.48,23656.8
687.847,22936.4
688.214,22202.7
688.581,21451.6
688.948,20707.2
689.315,19979.4
689.682,19277.7
690.049,18564.4
690.416,17884.6
690.783,17224
691.151,16584.4
691.518,15926.7
691.885,15333.3
692.252,14760.6
692.62,14200.4
692.987,13677.3
693.354,13213.8
693.721,12752.8
694.089,12325
694.456,11920
694.823,11515
695.191,11140.6
695.558,10804.5
695.926,10465.6
696.293,10162.2
696.661,9892.8
697.028,9624.9
697.396,9358.6
697.763,9115.5
698.131,8881.6
698.498,8666.2
698.866,8454.3
699.234,8262.6
699.601,8074.1
699.969,7901.8
700.337,7741.3
700.704,7588.3
701.072,7432.2
701.44,7290.2
701.807,7151.5
702.175,7002
702.543,6868.2
702.911,6742.3
703.279,6625
703.647,6503.4
704.014,6393
704.382,6288.3
704.75,6189.1
705.118,6101.1
705.486,6017.9
705.854,5935.1
706.222,5861.1
706.59,5783.8
706.958,5709.7
707.326,5646.1
707.694,5584.6
708.062,5531.1
708.431,5485.2
708.799,5439.8
709.167,5395.4
709.535,5364.8
709.903,5327
710.271,5290.9
710.64,5258
711.008,5237.2
711.376,5208
711.745,5186.5
712.113,5176.6
712.481,5168.6
712.85,5150.4
713.218,5138.8
713.586,5127.2
713.955,5112.8
714.323,5098.9
714.692,5085.4
715.06,5074.1
715.429,5066
715.797,5058.4
716.166,5044.1
716.534,5035.4
716.903,5028.8
717.272,5020.1
717.64,5012.5
718.009,5010.6
718.377,4993.8
718.746,4994.2
719.115,4990.4
719.484,4982.6
719.852,4978.6
720.221,4975.9
720.59,4964.3
720.959,4963.5
721.327,4958.5
721.696,4945.9
722.065,4948.1
722.434,4933.4
722.803,4918.3
723.172,4912
723.541,4909.4
723.91,4892.8
724.279,4893.9
724.648,4880.7
725.017,4876.7
725.386,4861.2
725.755,4869.7
726.124,4868.3
726.493,4871.3
726.862,4870
727.231,4887.5
727.6,4881.7
727.97,4877.7
728.339,4881.1
728.708,4877.6
729.077,4881
729.446,4881.8
729.816,4886.6
730.185,4884.5
730.554,4894.5
730.924,4891.1
731.293,4900.7
731.662,4906.8
732.032,4909.8
732.401,4906.6
732.77,4904.5
733.14,4903.4
733.509,4901
733.879,4892
734.248,4891.7
734.618,4884.9
734.987,4882
735.357,4886.5
735.727,4889.6
736.096,4879.3
736.466,4878.3
736.835,4869.8
737.205,4843.1
737.575,4836.2
737.944,4829.5
738.314,4807.6
738.684,4791.7
739.054,4799
739.423,4788.7
739.793,4767.1
740.163,4751.1
740.533,4730.2
740.903,4690
741.272,4665.3
741.642,4642.1
742.012,4616.7
742.382,4585.1
742.752,4553.5
743.122,4517.1
743.492,4477.1
743.862,4439.8
744.232,4393.8
744.602,4349.9
744.972,4296.8
745.342,4251.8
745.712,4196.6
746.082,4153.2
746.453,4112.7
746.823,4067.5
747.193,4021.1
747.563,3973.4
747.933,3928.8
748.303,3882.4
748.674,3839.8
749.044,3792
749.414,3761.5
749.784,3712.6
750.155,3667.7
750.525,3616.9
750.895,3559.3
751.266,3493.3
751.636,3442.5
752.007,3375.1
752.377,3314.6
752.747,3255.9
753.118,3197
753.488,3128.3
753.859,3076.6
754.229,3018.8
754.6,2968.7
754.971,2919.4
755.341,2869.6
755.712,2817.5
756.082,2774.1
756.453,2731
756.824,2687.6
757.194,2647.6
757.565,2608.9
757.936,2564
758.306,2524.9
758.677,2476
759.048,2440.7
759.419,2395.1
759.789,2350
760.16,2299.7
760.531,2261.8
760.902,2211.2
761.273,2171.2
761.644,2129
762.015,2087.8
762.385,2045.7
762.756,2003
763.127,1961.6
763.498,1924.7
763.869,1892.8
764.24,1856.2
764.611,1824.1
764.982,1787.5
765.354,1745.4
765.725,1701.7
766.096,1661.6
766.467,1621.8
766.838,1585.3
767.209,1552.6
767.58,1517.6
767.952,1487.2
768.323,1457.2
768.694,1425.3
769.065,1395.1
769.436,1362.6
769.808,1332.7
770.179,1297.1
770.55,1260.5
770.922,1226.2
771.293,1200.8
771.664,1166
772.036,1144.5
772.407,1117.7
772.779,1096.2
773.15,1069
773.522,1046.5
773.893,1022.2
774.265,1005
774.636,981.6
775.008,961.6
775.379,942.3
775.751,917.4
776.122,894.2
776.494,873.6
776.866,854.9
777.237,839.1
777.609,822.8
777.981,807.8
778.352,793.4
778.724,772
779.096,752.8
779.467,732.4
779.839,713.8
780.211,696.4
780.583,687.3
780.955,674
781.326,664.7
781.698,654.2
782.07,645.7
782.442,636.8
782.814,628.5
783.186,616.6
783.558,606.6
783.93,593.9
784.302,578.1
784.674,566.8
785.046,560.3
785.418,548.5
785.79,539.2
786.162,536.2
786.534,524.2
786.906,515.1
787.278,508.7
787.65,501.9
788.023,490.1
788.395,487.5
788.767,482.1
789.139,478
789.511,472.1
789.884,471.4
790.256,462.1
790.628,453.2
791,445
791.373,441.1
791.745,434.1
792.117,430.3
792.49,426.3
792.862,419.9
793.235,414.5
793.607,408.1
793.979,403.5
794.352,401.5
794.724,400.7
795.097,394.7
795.469,390.2
795.842,387.9
796.214,380.7
796.587,375.5
796.959,371
797.332,368.2
797.705,362
798.077,359.3
798.45,357.8
798.823,354.2
799.195,350.3
799.568,344.9
799.941,339.7
800.313,333.3
800.686,328.4
801.059,324.3
801.432,323
801.804,321.2
802.177,318.4
802.55,318.7
802.923,317.9
803.296,314.9
803.669,312.3
804.041,308
804.414,307.3
804.787,301.5
805.16,301.1
805.533,296.6
805.906,294.4
806.279,289
806.652,285.7
807.025,280.8
807.398,278.6
807.771,280.2
808.144,278.1
808.517,276
808.891,274.2
809.264,276.2
809.637,272.1
810.01,269.3
810.383,268.7
810.756,266.5
811.13,262.4
811.503,256.9
811.876,256
812.249,251.1
812.623,248.9
812.996,241.8
813.369,240.4
813.742,236.6
814.116,235.6
814.489,232.6
814.863,231.9
815.236,227
815.609,222.9
815.983,218.6
816.356,215.2
816.73,215.5
817.103,219.6
817.477,218.6
817.85,219
818.224,216.5
818.597,213
818.971,207.6
819.344,204.3
819.718,200.5
820.092,200.1
820.465,197.3
820.839,197.5
821.212,197.4
821.586,198.4
821.96,196.6
822.334,196.8
822.707,191.2
823.081,188.9
823.455,185.1
823.828,184.8
824.202,183.1
824.576,184.1
824.95,183.3
825.324,183
825.698,179.6
826.071,178.3
826.445,178.2
826.819,174
827.193,174
827.567,171.9
827.941,170.4
828.315,168.6
828.689,171.8
829.063,169.3
829.437,168.4
829.811,168.1
830.185,166.5
830.559,164.4
830.933,161.4
831.307,162.5
831.681,158.9
832.055,153.9
832.43,150.3
832.804,147.8
833.178,146.3
833.552,146.5
833.926,147
834.301,147.1
834.675,145.8
835.049,143.7
835.423,141.3
835.798,142.2
836.172,138.7
836.546,137.6
836.921,133.5
837.295,131.8
837.669,127.5
838.044,128
838.418,128.7
838.792,126.8
839.167,126
839.541,123.1
839.916,118.7
840.29,112.9
840.665,111
841.039,106.7
841.414,105.6
841.788,104.2
842.163,107.2
842.537,105.6
842.912,104.9
843.287,104.4
843.661,101.6
844.036,96.8
844.41,97
844.785,91.3
845.16,87.9
845.534,86.7
845.909,84.5
846.284,81.5
846.659,83.3
847.033,81.4
847.408,80.6
847.783,80.1
848.158,80.5
848.533,77.6
848.907,76.7
849.282,74.4
849.657,71.7
850.032,69.3
850.407,66.2
850.782,64
851.157,61.8
851.532,62.5
851.907,59.7
852.282,60
852.656,59.5
853.031,60.4
853.406,56.9
853.782,57.8
854.157,59
854.532,58.9
854.907,58.2
855.282,56.5
855.657,53
856.032,52.4
856.407,49.7
856.782,48.9
857.157,50.9
857.533,52.6
857.908,49.9
858.283,50.9
858.658,48.4
859.034,47
859.409,44.7
859.784,44.5
860.159,43.4
860.535,37.9
860.91,37.8
861.285,40
861.661,40.2
862.036,39
862.411,46.1
862.787,42.1
863.162,40.5
863.538,37.9
863.913,37.9
864.288,33.8
864.664,35.7
865.039,32.3
865.415,32
865.79,30.9
866.166,29.8
866.541,30.4
866.917,30.7
867.293,30.8
867.668,30.4
868.044,33.5
868.419,33.6
868.795,33.1
869.171,31
869.546,30.6
869.922,27
870.298,26.3
870.673,24.6
871.049,26.1
871.425,25.2
871.801,25.3
872.176,24
872.552,24.3
872.928,23.6
873.304,21.3
873.68,21.9
874.055,20.6
874.431,19.9
874.807,19.3
875.183,22.3
875.559,20.6
875.935,20.2
876.311,20.5
876.687,21.9
877.063,20.2
877.439,21.5
877.815,20.9
878.19,23.2
878.567,20.6
878.943,20.2
879.319,19.7
879.695,20.6
880.071,17
880.447,15.8
880.823,18.4
881.199,17
881.575,16.2
881.951,17
882.327,20.5
882.704,17.1
883.08,19.3
883.456,14.7
883.832,16
884.208,14.1
884.585,15.7
884.961,15.7
885.337,18.7
885.713,17.1
886.09,17.7
886.466,15
886.842,12.4
887.219,12.8
887.595,11.9
887.971,10.8
888.348,13.6
888.724,13.4
889.101,13.3
889.477,13.5
889.853,13.7
890.23,11.7
890.606,12.9
890.983,14.1
891.359,13.8
891.736,11.6
892.112,12.6
892.489,11.9
892.865,8.3
893.242,10.3
893.619,12.8
893.995,11.7
894.372,9.7
894.748,14.1
895.125,13.6
895.502,10.7
895.878,10.5
896.255,12.3
896.632,9
897.008,5.9
897.385,6.7
897.762,7.4
898.139,8.8
898.515,6.8
898.892,8.2
899.269,9.4
899.646,8.8
900.022,7.2
900.399,9.5
900.776,12.5
901.153,11.3
901.53,10.9
901.907,8.7
902.284,10.1
902.661,6.9
903.037,6.7
903.414,6.3
903.791,7.7
904.168,6.6
904.545,5.9
904.922,7.5
905.299,8.6
905.676,9
906.053,8.8
906.43,8.8
906.807,10
907.184,9.1
907.562,8.4
907.939,9.1
908.316,10.8
908.693,10.1
909.07,9.9
909.447,10.3
909.824,9
910.201,8.1
910.579,7.6
910.956,7.7
911.333,7.3
911.71,6.2
912.088,5.6
912.465,3.7
912.842,4.1
913.219,4.9
913.597,4.9
913.974,5
914.351,6.5
914.729,9.6
915.106,9.6
915.483,9.6
915.861,9.6